i_ext [A/cm2],Voltage [V],Power [W/cm2],Eta [V]
0.0,1.0374785996091571,0.0,0.0
0.001,0.9116241810803188,0.0009116241810803189,0.12585441852883827
0.022357142857142857,0.8171275883460489,0.018268638225165237,0.2203510112631082
0.04371428571428571,0.7958841557204244,0.03479150737863569,0.24159444388873275
0.06507142857142857,0.7825197003249234,0.05091967478542894,0.25495889928423376
0.08642857142857142,0.7724686975600907,0.06676336600340783,0.2650099020490664
0.10778571428571428,0.7642646045600016,0.08237680630578874,0.27321399504915556
0.12914285714285714,0.757245372372754,0.09779283094642423,0.2802332272364031
0.1505,0.751054383550058,0.11303368472428373,0.28642421605909907
0.17185714285714285,0.7454769611327008,0.1281155406060913,0.2920016384764563
0.1932142857142857,0.7403735100312195,0.14305073890246062,0.2971050895779376
0.21457142857142855,0.7356479367117688,0.1578490287058681,0.30183066289738836
0.2359285714285714,0.7312311225047459,0.17251831411665539,0.30624747710441125
0.2572857142857143,0.7270715814800149,0.18706513117792956,0.3104070181291422
0.27864285714285714,0.7231298936166883,0.20149497964276436,0.3143487059924688
0.3,0.7193749552022387,0.21581248656067162,0.3181036444069184
0.5,0.690009766172362,0.345004883086181,0.34746883343679513
0.6214285714285714,0.6751252225956795,0.41954210261302943,0.3623533770134776
0.7428571428571429,0.6613644957454446,0.49129933969661604,0.37611410386371247
0.8642857142857143,0.6482333222194009,0.5602587999181965,0.38924527738975623
0.9857142857142858,0.6353670940272704,0.6262904212554523,0.4021115055818867
1.1071428571428572,0.6224531054683599,0.6891445096256842,0.41502549414079726
1.2285714285714286,0.6091864604609097,0.748429079994832,0.4282921391482474
1.35,0.5952425233372446,0.8035774065052802,0.4422360762719125
1.4714285714285715,0.5802641522672505,0.8538172526218115,0.45721444734190664
1.592857142857143,0.5638703936279325,0.898164984135921,0.47360820598122466
1.7142857142857144,0.545689234312502,0.9354672588214321,0.49178936529665507
1.8357142857142859,0.5253923890829516,0.9644703142451326,0.5120862105262055
1.9571428571428573,0.5026930239453834,0.9838420611502504,0.5347855756637737
2.0785714285714287,0.47730656734453236,0.9921157935518495,0.5601720322646248
2.2,0.4488987834921261,0.9875773236826775,0.588579816117031
2.3,0.4228860603757445,0.9726379388642122,0.6145925392334126
2.3236842105263156,0.416325675330748,0.9674093982027643,0.6211529242784091
2.3473684210526313,0.4095937043672746,0.9614673270937076,0.6278848952418825
2.371052631578947,0.4026779992143965,0.95477072971624,0.6348006003947606
2.394736842105263,0.39556385373320263,0.9472713339400377,0.6419147458759544
2.4184210526315786,0.3882332470213963,0.9389114579280609,0.6492453525877608
2.442105263157895,0.38066376951657654,0.9296209950299553,0.6568148300925806
2.4657894736842105,0.37282708722040475,0.9193131071724191,0.6646515123887524
2.4894736842105263,0.3646866639728098,0.907877852942837,0.6727919356363473
2.513157894736842,0.3561943151731585,0.8951725552378063,0.6812842844359985
2.536842105263158,0.3472847450441887,0.8810065637436787,0.6901938545649684
2.5605263157894735,0.3378664941627407,0.8651160495272282,0.6996121054464164
2.5842105263157893,0.3278059965087909,0.8471197067674543,0.7096726031003662
2.607894736842105,0.316897267571273,0.8264347162187672,0.7205813320378841
2.631578947368421,0.30479813512387355,0.8021003555891408,0.7326804644852836
2.655263157894737,0.29087572636796266,0.772351599750722,0.7466028732411945
2.6789473684210527,0.2737420095312088,0.7333404360599226,0.7637365900779483
2.7026315789473685,0.24919188582961754,0.6734738598605716,0.7882867137795395
2.7263157894736842,0.17516913963923358,0.47756639122696315,0.8623094599699235
2.75,0.0,0.0,1.0374785996091571
